(dyn/cm2)      (K)     (cm)
Pressure     Temp    Hight       CH4        CO       H2O       CO2        H2        He      C2H2        N2       NH3       HCN
1.000E+09  2286.5  0.00E+00  4.09E-04  5.33E-05  7.52E-04  8.62E-09  8.36E-01  1.62E-01  2.26E-08  3.71E-05  6.22E-05  6.29E-07
8.437E+08  2190.5  6.40E+06  4.16E-04  4.67E-05  7.59E-04  8.07E-09  8.36E-01  1.62E-01  1.34E-08  3.81E-05  6.04E-05  4.70E-07
7.118E+08  2098.4  1.25E+07  4.24E-04  3.99E-05  7.66E-04  7.40E-09  8.36E-01  1.62E-01  7.55E-09  3.90E-05  5.88E-05  3.42E-07
6.005E+08  2008.3  1.84E+07  4.32E-04  3.27E-05  7.73E-04  6.56E-09  8.36E-01  1.62E-01  3.98E-09  3.96E-05  5.77E-05  2.38E-07
5.066E+08  1921.3  2.40E+07  4.39E-04  2.60E-05  7.80E-04  5.64E-09  8.36E-01  1.62E-01  1.97E-09  4.00E-05  5.70E-05  1.61E-07
4.274E+08  1840.1  2.94E+07  4.45E-04  2.02E-05  7.85E-04  4.77E-09  8.36E-01  1.62E-01  9.48E-10  4.04E-05  5.64E-05  1.06E-07
3.606E+08  1769.6  3.45E+07  4.49E-04  1.61E-05  7.89E-04  4.12E-09  8.36E-01  1.62E-01  4.80E-10  4.06E-05  5.58E-05  7.32E-08
3.042E+08  1716.3  3.95E+07  4.51E-04  1.42E-05  7.91E-04  3.87E-09  8.36E-01  1.62E-01  2.92E-10  4.09E-05  5.54E-05  5.75E-08
2.567E+08  1671.2  4.43E+07  4.52E-04  1.32E-05  7.92E-04  3.78E-09  8.36E-01  1.62E-01  1.93E-10  4.11E-05  5.49E-05  4.78E-08
2.166E+08  1626.1  4.90E+07  4.53E-04  1.19E-05  7.94E-04  3.62E-09  8.36E-01  1.62E-01  1.23E-10  4.15E-05  5.41E-05  3.82E-08
1.827E+08  1586.5  5.35E+07  4.54E-04  1.10E-05  7.94E-04  3.56E-09  8.36E-01  1.62E-01  8.22E-11  4.23E-05  5.25E-05  3.13E-08
1.541E+08  1565.1  5.79E+07  4.53E-04  1.22E-05  7.93E-04  4.06E-09  8.36E-01  1.62E-01  7.57E-11  4.44E-05  4.83E-05  3.02E-08
1.300E+08  1557.1  6.23E+07  4.50E-04  1.56E-05  7.90E-04  5.20E-09  8.36E-01  1.62E-01  8.94E-11  4.61E-05  4.48E-05  3.51E-08
1.097E+08  1550.0  6.67E+07  4.45E-04  1.99E-05  7.86E-04  6.68E-09  8.36E-01  1.62E-01  1.07E-10  4.77E-05  4.18E-05  4.13E-08
9.256E+07  1539.7  7.10E+07  4.41E-04  2.45E-05  7.81E-04  8.30E-09  8.36E-01  1.62E-01  1.19E-10  4.91E-05  3.90E-05  4.64E-08
7.809E+07  1531.8  7.53E+07  4.34E-04  3.07E-05  7.75E-04  1.05E-08  8.36E-01  1.62E-01  1.39E-10  5.03E-05  3.65E-05  5.38E-08
6.589E+07  1526.8  7.96E+07  4.26E-04  3.94E-05  7.66E-04  1.34E-08  8.36E-01  1.62E-01  1.69E-10  5.14E-05  3.43E-05  6.48E-08
5.559E+07  1521.8  8.39E+07  4.15E-04  5.02E-05  7.55E-04  1.69E-08  8.36E-01  1.62E-01  2.03E-10  5.24E-05  3.22E-05  7.77E-08
4.690E+07  1517.5  8.81E+07  4.01E-04  6.39E-05  7.42E-04  2.13E-08  8.36E-01  1.62E-01  2.43E-10  5.33E-05  3.04E-05  9.39E-08
3.957E+07  1518.6  9.24E+07  3.81E-04  8.40E-05  7.21E-04  2.72E-08  8.36E-01  1.62E-01  3.15E-10  5.42E-05  2.85E-05  1.20E-07
3.338E+07  1524.6  9.66E+07  3.53E-04  1.12E-04  6.93E-04  3.46E-08  8.36E-01  1.62E-01  4.30E-10  5.51E-05  2.67E-05  1.58E-07
2.816E+07  1527.4  1.01E+08  3.23E-04  1.42E-04  6.63E-04  4.17E-08  8.36E-01  1.62E-01  5.36E-10  5.60E-05  2.50E-05  1.96E-07
2.376E+07  1526.3  1.05E+08  2.93E-04  1.72E-04  6.33E-04  4.83E-08  8.36E-01  1.62E-01  6.06E-10  5.68E-05  2.33E-05  2.33E-07
2.005E+07  1531.0  1.09E+08  2.55E-04  2.10E-04  5.95E-04  5.49E-08  8.36E-01  1.62E-01  7.13E-10  5.76E-05  2.17E-05  2.84E-07
1.691E+07  1547.2  1.14E+08  2.06E-04  2.58E-04  5.47E-04  6.06E-08  8.37E-01  1.62E-01  9.09E-10  5.84E-05  1.99E-05  3.63E-07
1.427E+07  1563.4  1.18E+08  1.60E-04  3.05E-04  5.00E-04  6.39E-08  8.37E-01  1.62E-01  1.06E-09  5.92E-05  1.82E-05  4.45E-07
1.204E+07  1573.5  1.22E+08  1.23E-04  3.41E-04  4.64E-04  6.53E-08  8.37E-01  1.62E-01  1.08E-09  5.99E-05  1.68E-05  5.09E-07
1.016E+07  1577.8  1.27E+08  9.64E-05  3.68E-04  4.37E-04  6.59E-08  8.37E-01  1.62E-01  1.01E-09  6.04E-05  1.57E-05  5.51E-07
8.568E+06  1576.5  1.31E+08  7.67E-05  3.87E-04  4.17E-04  6.65E-08  8.37E-01  1.62E-01  8.78E-10  6.08E-05  1.49E-05  5.75E-07
7.229E+06  1574.0  1.36E+08  6.10E-05  4.03E-04  4.02E-04  6.68E-08  8.37E-01  1.62E-01  7.44E-10  6.11E-05  1.43E-05  5.93E-07
6.099E+06  1573.1  1.40E+08  4.80E-05  4.16E-04  3.89E-04  6.68E-08  8.37E-01  1.62E-01  6.34E-10  6.13E-05  1.38E-05  6.09E-07
5.145E+06  1571.7  1.44E+08  3.77E-05  4.26E-04  3.78E-04  6.68E-08  8.37E-01  1.62E-01  5.35E-10  6.15E-05  1.34E-05  6.20E-07
4.341E+06  1568.0  1.49E+08  3.00E-05  4.34E-04  3.71E-04  6.69E-08  8.37E-01  1.62E-01  4.42E-10  6.16E-05  1.31E-05  6.25E-07
3.662E+06  1561.9  1.53E+08  2.44E-05  4.40E-04  3.65E-04  6.74E-08  8.37E-01  1.62E-01  3.66E-10  6.17E-05  1.30E-05  6.24E-07
3.090E+06  1553.4  1.58E+08  2.05E-05  4.44E-04  3.61E-04  6.81E-08  8.37E-01  1.62E-01  3.05E-10  6.18E-05  1.28E-05  6.18E-07
2.607E+06  1544.0  1.62E+08  1.77E-05  4.46E-04  3.58E-04  6.89E-08  8.37E-01  1.62E-01  2.66E-10  6.18E-05  1.28E-05  6.09E-07
2.199E+06  1532.2  1.66E+08  1.58E-05  4.48E-04  3.56E-04  7.01E-08  8.37E-01  1.62E-01  2.34E-10  6.19E-05  1.27E-05  5.97E-07
1.855E+06  1519.5  1.71E+08  1.46E-05  4.50E-04  3.55E-04  7.15E-08  8.37E-01  1.62E-01  2.14E-10  6.19E-05  1.27E-05  5.85E-07
1.565E+06  1505.9  1.75E+08  1.38E-05  4.50E-04  3.54E-04  7.30E-08  8.37E-01  1.62E-01  2.01E-10  6.19E-05  1.27E-05  5.74E-07
1.321E+06  1492.4  1.79E+08  1.32E-05  4.51E-04  3.54E-04  7.46E-08  8.37E-01  1.62E-01  1.95E-10  6.19E-05  1.27E-05  5.65E-07
1.114E+06  1477.9  1.83E+08  1.29E-05  4.51E-04  3.53E-04  7.63E-08  8.37E-01  1.62E-01  1.90E-10  6.19E-05  1.27E-05  5.58E-07
9.401E+05  1463.6  1.87E+08  1.27E-05  4.51E-04  3.53E-04  7.82E-08  8.37E-01  1.62E-01  1.88E-10  6.19E-05  1.27E-05  5.53E-07
7.931E+05  1449.3  1.91E+08  1.26E-05  4.52E-04  3.53E-04  8.02E-08  8.37E-01  1.62E-01  1.87E-10  6.19E-05  1.27E-05  5.50E-07
6.691E+05  1433.2  1.96E+08  1.26E-05  4.52E-04  3.53E-04  8.25E-08  8.37E-01  1.62E-01  1.78E-10  6.19E-05  1.27E-05  5.50E-07
5.645E+05  1416.2  2.00E+08  1.25E-05  4.52E-04  3.53E-04  8.51E-08  8.37E-01  1.62E-01  1.66E-10  6.19E-05  1.27E-05  5.51E-07
4.763E+05  1397.8  2.04E+08  1.25E-05  4.52E-04  3.53E-04  8.81E-08  8.37E-01  1.62E-01  1.48E-10  6.19E-05  1.27E-05  5.53E-07
4.018E+05  1379.2  2.07E+08  1.25E-05  4.52E-04  3.53E-04  9.13E-08  8.37E-01  1.62E-01  1.30E-10  6.19E-05  1.27E-05  5.56E-07
3.390E+05  1359.6  2.11E+08  1.25E-05  4.52E-04  3.53E-04  9.50E-08  8.37E-01  1.62E-01  1.10E-10  6.19E-05  1.27E-05  5.60E-07
2.860E+05  1339.5  2.15E+08  1.25E-05  4.52E-04  3.53E-04  9.90E-08  8.37E-01  1.62E-01  9.00E-11  6.19E-05  1.27E-05  5.65E-07
2.413E+05  1319.3  2.19E+08  1.25E-05  4.52E-04  3.53E-04  1.03E-07  8.37E-01  1.62E-01  7.24E-11  6.19E-05  1.27E-05  5.70E-07
2.036E+05  1299.0  2.23E+08  1.25E-05  4.52E-04  3.53E-04  1.08E-07  8.37E-01  1.62E-01  5.72E-11  6.19E-05  1.27E-05  5.76E-07
1.718E+05  1278.5  2.26E+08  1.25E-05  4.52E-04  3.53E-04  1.13E-07  8.37E-01  1.62E-01  4.42E-11  6.19E-05  1.27E-05  5.83E-07
1.449E+05  1258.2  2.30E+08  1.24E-05  4.52E-04  3.53E-04  1.19E-07  8.37E-01  1.62E-01  3.37E-11  6.19E-05  1.27E-05  5.90E-07
1.222E+05  1238.0  2.33E+08  1.24E-05  4.52E-04  3.53E-04  1.25E-07  8.37E-01  1.62E-01  2.53E-11  6.19E-05  1.26E-05  5.97E-07
1.031E+05  1218.2  2.37E+08  1.24E-05  4.52E-04  3.53E-04  1.32E-07  8.37E-01  1.62E-01  1.91E-11  6.19E-05  1.26E-05  6.06E-07
8.702E+04  1199.9  2.40E+08  1.24E-05  4.52E-04  3.53E-04  1.38E-07  8.37E-01  1.62E-01  1.49E-11  6.19E-05  1.26E-05  6.16E-07
7.341E+04  1183.0  2.44E+08  1.24E-05  4.52E-04  3.53E-04  1.45E-07  8.37E-01  1.62E-01  1.23E-11  6.19E-05  1.26E-05  6.26E-07
6.194E+04  1166.0  2.47E+08  1.24E-05  4.52E-04  3.53E-04  1.52E-07  8.37E-01  1.62E-01  1.09E-11  6.19E-05  1.26E-05  6.38E-07
5.225E+04  1151.5  2.50E+08  1.24E-05  4.52E-04  3.53E-04  1.58E-07  8.37E-01  1.62E-01  1.14E-11  6.19E-05  1.26E-05  6.52E-07
4.409E+04  1138.5  2.53E+08  1.24E-05  4.52E-04  3.53E-04  1.64E-07  8.37E-01  1.62E-01  1.48E-11  6.19E-05  1.26E-05  6.67E-07
3.719E+04  1128.3  2.57E+08  1.24E-05  4.52E-04  3.53E-04  1.69E-07  8.37E-01  1.62E-01  2.30E-11  6.19E-05  1.26E-05  6.84E-07
3.138E+04  1119.6  2.60E+08  1.23E-05  4.52E-04  3.53E-04  1.74E-07  8.37E-01  1.62E-01  3.85E-11  6.19E-05  1.25E-05  7.03E-07
2.647E+04  1112.1  2.63E+08  1.23E-05  4.52E-04  3.53E-04  1.79E-07  8.37E-01  1.62E-01  6.45E-11  6.19E-05  1.25E-05  7.25E-07
2.234E+04  1103.6  2.66E+08  1.23E-05  4.52E-04  3.53E-04  1.83E-07  8.37E-01  1.62E-01  1.03E-10  6.19E-05  1.25E-05  7.50E-07
1.884E+04  1095.9  2.69E+08  1.23E-05  4.52E-04  3.53E-04  1.88E-07  8.37E-01  1.62E-01  1.55E-10  6.19E-05  1.25E-05  7.79E-07
1.590E+04  1087.5  2.72E+08  1.22E-05  4.52E-04  3.53E-04  1.93E-07  8.37E-01  1.62E-01  2.19E-10  6.19E-05  1.24E-05  8.11E-07
1.341E+04  1079.1  2.75E+08  1.22E-05  4.52E-04  3.53E-04  1.99E-07  8.37E-01  1.62E-01  2.94E-10  6.19E-05  1.24E-05  8.48E-07
1.132E+04  1071.3  2.78E+08  1.21E-05  4.52E-04  3.53E-04  2.04E-07  8.37E-01  1.62E-01  3.80E-10  6.19E-05  1.23E-05  8.90E-07
9.547E+03  1064.3  2.81E+08  1.21E-05  4.52E-04  3.53E-04  2.08E-07  8.37E-01  1.62E-01  4.76E-10  6.19E-05  1.23E-05  9.37E-07
8.055E+03  1058.5  2.84E+08  1.20E-05  4.52E-04  3.53E-04  2.13E-07  8.37E-01  1.62E-01  5.83E-10  6.19E-05  1.22E-05  9.91E-07
6.795E+03  1053.5  2.87E+08  1.20E-05  4.52E-04  3.53E-04  2.17E-07  8.37E-01  1.62E-01  7.01E-10  6.19E-05  1.22E-05  1.05E-06
5.733E+03  1049.4  2.90E+08  1.19E-05  4.52E-04  3.53E-04  2.21E-07  8.37E-01  1.62E-01  8.30E-10  6.19E-05  1.21E-05  1.12E-06
4.837E+03  1046.0  2.93E+08  1.18E-05  4.52E-04  3.53E-04  2.24E-07  8.37E-01  1.62E-01  9.71E-10  6.19E-05  1.20E-05  1.20E-06
4.081E+03  1043.5  2.96E+08  1.17E-05  4.52E-04  3.53E-04  2.27E-07  8.37E-01  1.62E-01  1.13E-09  6.19E-05  1.19E-05  1.29E-06
3.443E+03  1041.5  2.99E+08  1.16E-05  4.52E-04  3.53E-04  2.29E-07  8.37E-01  1.62E-01  1.30E-09  6.19E-05  1.18E-05  1.39E-06
2.905E+03  1039.8  3.02E+08  1.15E-05  4.52E-04  3.53E-04  2.31E-07  8.37E-01  1.62E-01  1.49E-09  6.19E-05  1.17E-05  1.50E-06
2.451E+03  1038.3  3.05E+08  1.14E-05  4.52E-04  3.53E-04  2.33E-07  8.37E-01  1.62E-01  1.69E-09  6.19E-05  1.16E-05  1.63E-06
2.067E+03  1036.3  3.08E+08  1.12E-05  4.52E-04  3.53E-04  2.35E-07  8.37E-01  1.62E-01  1.89E-09  6.19E-05  1.14E-05  1.78E-06
1.744E+03  1034.4  3.10E+08  1.11E-05  4.52E-04  3.53E-04  2.37E-07  8.37E-01  1.62E-01  2.11E-09  6.19E-05  1.12E-05  1.95E-06
1.472E+03  1032.2  3.13E+08  1.09E-05  4.52E-04  3.53E-04  2.39E-07  8.37E-01  1.62E-01  2.34E-09  6.19E-05  1.10E-05  2.14E-06
1.242E+03  1030.3  3.16E+08  1.07E-05  4.52E-04  3.53E-04  2.41E-07  8.37E-01  1.62E-01  2.58E-09  6.19E-05  1.08E-05  2.36E-06
1.047E+03  1028.1  3.19E+08  1.04E-05  4.52E-04  3.53E-04  2.43E-07  8.37E-01  1.62E-01  2.83E-09  6.19E-05  1.05E-05  2.61E-06
8.837E+02  1026.2  3.22E+08  1.01E-05  4.52E-04  3.53E-04  2.45E-07  8.37E-01  1.62E-01  3.10E-09  6.19E-05  1.03E-05  2.89E-06
7.456E+02  1024.1  3.25E+08  9.79E-06  4.52E-04  3.53E-04  2.47E-07  8.37E-01  1.62E-01  3.38E-09  6.20E-05  9.91E-06  3.22E-06
6.290E+02  1022.2  3.28E+08  9.41E-06  4.51E-04  3.53E-04  2.49E-07  8.37E-01  1.62E-01  3.66E-09  6.20E-05  9.52E-06  3.59E-06
5.307E+02  1020.0  3.31E+08  8.98E-06  4.51E-04  3.53E-04  2.51E-07  8.37E-01  1.62E-01  3.95E-09  6.20E-05  9.08E-06  4.01E-06
4.477E+02  1018.1  3.33E+08  8.50E-06  4.51E-04  3.53E-04  2.53E-07  8.37E-01  1.62E-01  4.23E-09  6.20E-05  8.58E-06  4.49E-06
3.777E+02  1014.9  3.36E+08  7.95E-06  4.51E-04  3.53E-04  2.56E-07  8.37E-01  1.62E-01  4.51E-09  6.20E-05  8.02E-06  5.03E-06
3.187E+02  1012.1  3.39E+08  7.35E-06  4.51E-04  3.53E-04  2.60E-07  8.37E-01  1.62E-01  4.79E-09  6.20E-05  7.39E-06  5.62E-06
2.689E+02  1007.1  3.42E+08  6.69E-06  4.51E-04  3.53E-04  2.64E-07  8.37E-01  1.62E-01  5.07E-09  6.20E-05  6.71E-06  6.27E-06
2.268E+02  1002.9  3.45E+08  5.99E-06  4.51E-04  3.53E-04  2.68E-07  8.36E-01  1.62E-01  5.38E-09  6.20E-05  5.97E-06  6.97E-06
1.914E+02   997.1  3.48E+08  5.26E-06  4.51E-04  3.53E-04  2.73E-07  8.36E-01  1.62E-01  5.73E-09  6.20E-05  5.20E-06  7.70E-06
1.615E+02   992.0  3.50E+08  4.52E-06  4.51E-04  3.53E-04  2.79E-07  8.36E-01  1.62E-01  6.14E-09  6.21E-05  4.41E-06  8.44E-06
1.362E+02   986.0  3.53E+08  3.79E-06  4.51E-04  3.53E-04  2.85E-07  8.36E-01  1.62E-01  6.65E-09  6.21E-05  3.64E-06  9.16E-06
1.149E+02   980.7  3.56E+08  3.11E-06  4.51E-04  3.53E-04  2.91E-07  8.36E-01  1.62E-01  7.25E-09  6.21E-05  2.90E-06  9.83E-06
9.696E+01   973.9  3.59E+08  2.50E-06  4.51E-04  3.53E-04  2.98E-07  8.36E-01  1.62E-01  7.98E-09  6.21E-05  2.23E-06  1.04E-05
8.180E+01   967.8  3.61E+08  1.97E-06  4.51E-04  3.52E-04  3.06E-07  8.36E-01  1.62E-01  8.85E-09  6.21E-05  1.65E-06  1.10E-05
6.901E+01   960.2  3.64E+08  1.54E-06  4.51E-04  3.52E-04  3.14E-07  8.36E-01  1.62E-01  9.88E-09  6.21E-05  1.17E-06  1.14E-05
5.822E+01   953.5  3.67E+08  1.20E-06  4.51E-04  3.52E-04  3.22E-07  8.36E-01  1.62E-01  1.11E-08  6.21E-05  7.97E-07  1.17E-05
4.912E+01   945.4  3.69E+08  9.42E-07  4.51E-04  3.52E-04  3.31E-07  8.35E-01  1.62E-01  1.25E-08  6.21E-05  5.17E-07  1.20E-05
4.144E+01   938.1  3.72E+08  7.49E-07  4.51E-04  3.52E-04  3.41E-07  8.35E-01  1.62E-01  1.41E-08  6.21E-05  3.19E-07  1.22E-05
3.496E+01   930.1  3.75E+08  6.08E-07  4.51E-04  3.52E-04  3.50E-07  8.35E-01  1.62E-01  1.60E-08  6.21E-05  1.88E-07  1.23E-05
2.950E+01   922.9  3.77E+08  5.05E-07  4.51E-04  3.52E-04  3.60E-07  8.35E-01  1.62E-01  1.82E-08  6.21E-05  1.06E-07  1.24E-05
2.489E+01   915.4  3.80E+08  4.29E-07  4.51E-04  3.52E-04  3.69E-07  8.34E-01  1.62E-01  2.07E-08  6.21E-05  5.69E-08  1.24E-05
2.100E+01   908.7  3.83E+08  3.71E-07  4.51E-04  3.52E-04  3.78E-07  8.34E-01  1.62E-01  2.36E-08  6.21E-05  2.94E-08  1.25E-05
1.771E+01   901.7  3.85E+08  3.26E-07  4.51E-04  3.52E-04  3.87E-07  8.33E-01  1.62E-01  2.70E-08  6.21E-05  1.46E-08  1.25E-05
1.495E+01   895.5  3.88E+08  2.88E-07  4.50E-04  3.52E-04  3.94E-07  8.33E-01  1.62E-01  3.08E-08  6.21E-05  7.00E-09  1.25E-05
1.261E+01   889.5  3.90E+08  2.55E-07  4.50E-04  3.51E-04  4.02E-07  8.32E-01  1.62E-01  3.50E-08  6.21E-05  3.24E-09  1.25E-05
1.064E+01   884.2  3.93E+08  2.25E-07  4.50E-04  3.51E-04  4.08E-07  8.31E-01  1.62E-01  3.97E-08  6.20E-05  1.46E-09  1.25E-05
8.975E+00   879.4  3.95E+08  1.96E-07  4.50E-04  3.51E-04  4.15E-07  8.30E-01  1.62E-01  4.48E-08  6.20E-05  6.41E-10  1.24E-05
7.572E+00   875.3  3.98E+08  1.66E-07  4.50E-04  3.51E-04  4.22E-07  8.29E-01  1.62E-01  5.01E-08  6.20E-05  2.79E-10  1.24E-05
6.388E+00   871.6  4.00E+08  1.35E-07  4.49E-04  3.50E-04  4.29E-07  8.28E-01  1.61E-01  5.54E-08  6.20E-05  1.21E-10  1.23E-05
5.389E+00   868.6  4.02E+08  1.04E-07  4.49E-04  3.50E-04  4.39E-07  8.26E-01  1.61E-01  6.05E-08  6.19E-05  5.44E-11  1.23E-05
4.547E+00   866.1  4.05E+08  7.37E-08  4.48E-04  3.49E-04  4.53E-07  8.24E-01  1.61E-01  6.48E-08  6.19E-05  2.69E-11  1.22E-05
3.836E+00   864.1  4.07E+08  4.78E-08  4.48E-04  3.49E-04  4.71E-07  8.21E-01  1.61E-01  6.79E-08  6.18E-05  1.53E-11  1.21E-05
3.236E+00   862.5  4.10E+08  2.80E-08  4.47E-04  3.48E-04  4.95E-07  8.18E-01  1.61E-01  6.98E-08  6.17E-05  9.95E-12  1.20E-05
2.730E+00   861.5  4.12E+08  1.51E-08  4.46E-04  3.47E-04  5.26E-07  8.14E-01  1.60E-01  7.06E-08  6.16E-05  7.05E-12  1.18E-05
2.304E+00   860.7  4.15E+08  7.62E-09  4.45E-04  3.46E-04  5.65E-07  8.09E-01  1.60E-01  7.05E-08  6.15E-05  5.24E-12  1.16E-05
1.944E+00   860.5  4.17E+08  3.79E-09  4.43E-04  3.44E-04  6.09E-07  8.03E-01  1.59E-01  6.98E-08  6.14E-05  4.03E-12  1.13E-05
1.640E+00   860.6  4.20E+08  1.97E-09  4.42E-04  3.43E-04  6.55E-07  7.97E-01  1.59E-01  6.86E-08  6.13E-05  3.21E-12  1.09E-05
1.383E+00   861.3  4.22E+08  1.09E-09  4.40E-04  3.41E-04  7.01E-07  7.90E-01  1.58E-01  6.72E-08  6.11E-05  2.64E-12  1.06E-05
1.167E+00   862.0  4.25E+08  6.41E-10  4.39E-04  3.39E-04  7.44E-07  7.83E-01  1.57E-01  6.55E-08  6.10E-05  2.21E-12  1.01E-05
9.847E-01   863.6  4.27E+08  3.96E-10  4.37E-04  3.37E-04  7.82E-07  7.75E-01  1.57E-01  6.36E-08  6.08E-05  1.89E-12  9.59E-06
8.307E-01   865.1  4.30E+08  2.55E-10  4.35E-04  3.34E-04  8.15E-07  7.66E-01  1.56E-01  6.16E-08  6.07E-05  1.64E-12  9.00E-06
7.009E-01   867.3  4.32E+08  1.70E-10  4.33E-04  3.31E-04  8.40E-07  7.57E-01  1.55E-01  5.95E-08  6.05E-05  1.43E-12  8.34E-06
5.913E-01   869.7  4.35E+08  1.17E-10  4.30E-04  3.28E-04  8.59E-07  7.47E-01  1.54E-01  5.74E-08  6.03E-05  1.25E-12  7.62E-06
4.989E-01   872.9  4.37E+08  8.24E-11  4.28E-04  3.25E-04  8.70E-07  7.37E-01  1.53E-01  5.53E-08  6.01E-05  1.10E-12  6.86E-06
4.209E-01   876.7  4.40E+08  5.99E-11  4.25E-04  3.22E-04  8.74E-07  7.27E-01  1.52E-01  5.32E-08  5.98E-05  9.69E-13  6.07E-06
3.551E-01   881.0  4.42E+08  4.48E-11  4.22E-04  3.19E-04  8.70E-07  7.16E-01  1.51E-01  5.13E-08  5.96E-05  8.53E-13  5.28E-06
2.996E-01   887.0  4.45E+08  3.49E-11  4.19E-04  3.15E-04  8.60E-07  7.04E-01  1.50E-01  4.95E-08  5.92E-05  7.60E-13  4.52E-06
2.527E-01   893.0  4.48E+08  2.80E-11  4.16E-04  3.11E-04  8.43E-07  6.93E-01  1.49E-01  4.80E-08  5.88E-05  6.76E-13  3.80E-06
2.132E-01   902.4  4.50E+08  2.39E-11  4.12E-04  3.07E-04  8.18E-07  6.81E-01  1.48E-01  4.68E-08  5.83E-05  6.26E-13  3.15E-06
1.799E-01   912.0  4.53E+08  2.12E-11  4.08E-04  3.03E-04  7.86E-07  6.68E-01  1.47E-01  4.60E-08  5.78E-05  5.87E-13  2.59E-06
1.518E-01   925.8  4.56E+08  2.04E-11  4.02E-04  2.99E-04  7.47E-07  6.54E-01  1.46E-01  4.58E-08  5.71E-05  5.88E-13  2.13E-06
1.281E-01   942.1  4.59E+08  2.09E-11  3.97E-04  2.94E-04  7.00E-07  6.40E-01  1.45E-01  4.64E-08  5.62E-05  6.24E-13  1.78E-06
1.080E-01   961.5  4.62E+08  2.31E-11  3.90E-04  2.89E-04  6.45E-07  6.25E-01  1.43E-01  4.79E-08  5.51E-05  7.09E-13  1.54E-06
9.114E-02   989.7  4.65E+08  2.82E-11  3.81E-04  2.84E-04  5.80E-07  6.09E-01  1.42E-01  5.07E-08  5.38E-05  9.32E-13  1.42E-06
7.690E-02  1017.9  4.68E+08  3.56E-11  3.71E-04  2.79E-04  5.08E-07  5.91E-01  1.40E-01  5.54E-08  5.21E-05  1.25E-12  1.40E-06
6.488E-02  1067.1  4.71E+08  5.28E-11  3.59E-04  2.73E-04  4.23E-07  5.71E-01  1.38E-01  6.27E-08  5.01E-05  2.22E-12  1.53E-06
5.473E-02  1122.8  4.75E+08  7.94E-11  3.44E-04  2.67E-04  3.33E-07  5.48E-01  1.36E-01  7.37E-08  4.74E-05  4.10E-12  1.79E-06
4.618E-02  1200.3  4.79E+08  1.28E-10  3.23E-04  2.61E-04  2.39E-07  5.20E-01  1.33E-01  9.01E-08  4.39E-05  8.95E-12  2.19E-06
3.896E-02  1321.5  4.83E+08  2.27E-10  2.96E-04  2.52E-04  1.46E-07  4.86E-01  1.30E-01  1.15E-07  3.93E-05  2.51E-11  2.71E-06
3.287E-02  1454.7  4.87E+08  3.11E-10  2.61E-04  2.39E-04  8.40E-08  4.41E-01  1.25E-01  1.51E-07  3.32E-05  5.66E-11  3.15E-06
2.773E-02  1765.7  4.92E+08  5.12E-10  2.14E-04  2.02E-04  3.56E-08  3.78E-01  1.19E-01  2.00E-07  2.52E-05  2.35E-10  2.90E-06
2.340E-02  2347.1  4.99E+08  4.39E-10  1.52E-04  1.03E-04  1.03E-08  2.72E-01  1.08E-01  2.14E-07  1.43E-05  7.42E-10  9.55E-07
1.974E-02  3208.4  5.09E+08  2.52E-11  6.34E-05  1.02E-05  7.78E-10  1.07E-01  9.04E-02  3.95E-08  3.30E-06  2.11E-10  3.69E-08
1.665E-02  4270.8  5.24E+08  5.93E-16  6.39E-06  1.67E-08  1.73E-12  6.71E-03  7.49E-02  1.03E-12  2.21E-07  1.07E-13  1.12E-10
1.405E-02  5167.1  5.47E+08  9.16E-22  1.38E-07  7.65E-13  1.01E-16  7.46E-05  6.28E-02  6.07E-19  3.34E-09  4.22E-19  1.27E-14
1.185E-02  5923.2  5.75E+08  2.25E-27  0.00E+00  4.93E-18  0.00E+00  3.06E-07  5.00E-02  0.00E+00  0.00E+00  5.19E-25  0.00E+00
1.000E-02  6000.0  6.09E+08  1.00E-32  1.24E-11  2.07E-23  1.00E-25  1.32E-09  3.83E-02  0.00E+00  1.46E-13  4.92E-31  9.93E-25
